253.23752
253.79868
254.35983
254.92099
255.48216
256.04332
256.60449
257.16566
257.72684
258.28801
258.84918
259.41037
259.97156
260.53275
261.09393
261.65512
262.21631
262.77751
263.3387
263.8999
264.46111
265.02231
265.58353
266.14474
266.70593
267.26715
267.82837
268.38959
268.95081
269.51205
270.07327
270.63449
271.19574
271.75696
272.31821
272.87943
273.44067
274.00192
274.56317
275.12439
275.68564
276.24689
276.80817
277.36942
277.93066
278.49191
279.05319
279.61444
280.17572
280.73697
281.29825
281.85953
282.42081
282.98206
283.54333
284.10461
284.66589
285.22717
285.78848
286.34976
286.91104
287.47235
288.03363
288.59491
289.15622
289.71753
290.27881
290.84012
291.40143
291.96274
292.52402
293.08533
293.64664
294.20795
294.76929
295.3306
295.89191
296.45322
297.01456
297.57587
298.13718
298.69852
299.25983
299.82117
300.38251
300.94382
301.50516
302.0665
302.62784
303.18918
303.75052
304.31186
304.8732
305.43454
305.99588
306.55722
307.11856
307.67993
308.24127
308.80261
309.36398
309.92532
310.48669
311.04803
311.60941
312.17075
312.73212
313.29349
313.85486
314.4162
314.97757
315.53894
316.10031
316.66168
317.22305
317.78442
318.34579
318.90717
319.46854
320.02991
320.59131
321.15268
321.71405
322.27542
322.83682
323.39819
323.95956
324.52097
325.08234
325.64374
326.20511
326.76651
327.32791
327.88928
328.45068
329.01208
329.57346
330.13486
330.69626
331.25766
331.81903
332.38043
332.94183
333.50323
334.06464
334.62604
335.18744
335.74884
336.31024
336.87164
337.43304
337.99445
338.55585
339.11725
339.67868
340.24008
340.80148
341.36288
341.92429
342.48572
343.04712
343.60852
344.16992
344.73135
345.29276
345.85419
346.41559
346.97699
347.53842
348.09982
348.66125
349.22266
349.78406
350.34549
350.90689
351.46832
352.02972
352.59116
353.15256
353.71399
354.27542
354.83682
355.39825
355.95966
356.52109
357.08249
357.64392
358.20535
358.76675
359.32819
359.88959
360.45102
361.01245
361.57385
362.13528
362.69672
363.25812
363.81955
364.38098
364.94238
365.50381
366.06522
366.62665
367.18808
367.74948
368.31091
368.87234
369.43375
369.99518
370.55661
371.11801
371.67944
372.24084
372.80228
373.36371
373.92511
374.48654
375.04797
375.60938
376.17081
376.73221
377.29364
377.85504
378.41647
378.97787
379.53931
380.10074
380.66214
381.22357
381.78497
382.34641
382.90781
383.46921
384.03064
384.59204
385.15347
385.71487
386.27628
386.83771
387.39911
387.96051
388.52194
389.08334
389.64474
390.20618
390.76758
391.32898
391.89038
392.45178
393.01321
393.57462
394.13602
394.69742
395.25882
395.82022
396.38162
396.94302
397.50443
398.06583
398.62723
399.18863
399.75003
400.31143
400.8728
401.4342
401.99561
402.55701
403.11841
403.67978
404.24118
404.80258
405.36395
405.92535
406.48672
407.04813
407.6095
408.1709
408.73227
409.29364
409.85504
410.41641
410.97778
411.53918
412.10056
412.66193
413.2233
413.78467
414.34604
414.90741
415.46878
416.03015
416.59152
417.15289
417.71426
418.27563
418.83701
419.39835
419.95972
420.52109
421.08243
421.6438
422.20514
422.76651
423.32785
423.88919
424.45056
425.0119
425.57324
426.13461
426.69595
427.25729
427.81863
428.37997
428.94131
429.50266
430.064
430.62531
431.18665
431.74799
432.3093
432.87064
433.43198
433.99329
434.55463
435.11594
435.67725
436.23859
436.7999
437.36121
437.92252
438.48383
439.04514
439.60645
440.16776
440.72906
441.29037
441.85168
442.41296
442.97427
443.53555
444.09686
444.65814
445.21945
445.78073
446.34201
446.90329
447.4646
448.02588
448.58716
449.14844
449.70969
450.27097
450.83224
451.39352
451.95477
452.51605
453.0773
453.63858
454.19983
454.76108
455.32236
455.88361
456.44485
457.0061
457.56735
458.1286
458.68982
459.25107
459.81232
460.37354
460.93478
461.496
462.05725
462.61847
463.17969
463.74091
464.30212
464.86334
465.42456
465.98578
466.547
467.10818
467.6694
468.23059
468.79181
469.353
469.91418
470.4754
471.03659
471.59778
472.15897
472.72015
473.28131
473.8425
474.40369
474.96484
475.52603
476.08719
476.64835
477.20953
477.77069
478.33185
478.89301
479.45416
480.01529
480.57645
481.1376
481.69873
482.25986
482.82101
483.38214
483.94327
484.50439
485.06552
485.62665
486.18777
486.7489
487.31
487.87112
488.43222
488.99332
489.55444
490.11554
490.67664
491.23773
491.7988
492.35989
492.92099
493.48206
494.04315
494.60422
495.16528
495.72635
496.28741
496.84848
497.40955
497.97061
498.53168
499.09271
499.65378
500.21481
500.77585
501.33688
501.89792
502.45895
503.01999
503.58102
504.14203
504.70306
505.26407
505.82507
506.38611
506.94711
507.50812
508.06909
508.6301
509.1911
509.75208
510.31308
510.87405
511.43503
511.996
512.55698
513.11795
513.67892
514.23987
514.80084
515.36179
515.92273
516.48367
517.04462
517.60556
518.1665
518.72745
519.28836
519.8493
520.41022
520.97113
521.53204
522.09296
522.65387
523.21478
523.7757
524.33661
524.89746
525.45837
526.01923
526.58014
527.14099
527.7019
528.26276
528.82361
529.38446
529.94537
530.50623
531.06708
531.62787
532.18872
532.74957
533.31042
533.87128
534.43207
534.99292
535.55371
536.11456
536.67535
537.23615
537.79694
538.35779
538.91858
539.47937
540.04016
540.60089
541.16168
541.72247
542.28326
542.84399
543.40479
543.96552
544.52631
545.08704
545.64777
546.20856
546.76929
547.33002
547.89075
548.45148
549.01215
549.57288
550.13361
550.69434
551.255
551.81573
552.3764
552.93707
553.4978
554.05847
554.61914
555.17981
555.74048
556.30115
556.86182
557.42242
557.98309
558.54376
559.10437
559.66504
560.22565
560.78625
561.34692
561.90753
562.46814
563.02875
563.58936
564.14996
564.71057
565.27112
565.83173
566.39227
566.95288
567.51343
568.07404
568.63458
569.19513
569.75568
570.31622
570.87677
571.43732
571.99786
572.55835
573.1189
573.67944
574.23993
574.80042
575.36096
575.92145
576.48193
577.04242
577.60291
578.16339
578.72388
579.2843
579.84479
580.40527
580.9657
581.52612
582.08661
582.64703
583.20746
583.76788
584.32831
584.88873
585.44916
586.00952
586.56995
587.13037
587.69073
588.2511
588.81152
589.37189
589.93225
590.49261
591.05298
591.61334
592.17371
592.73401
593.29437
593.85468
594.41504
594.97534
595.53564
596.09601
596.65631
597.21661
597.77686
598.33716
598.89746
599.45776
600.01801
600.57831
601.13855
601.69879
602.25903
602.81927
603.37952
603.93976
604.5
605.06024
605.62042
606.18066
606.74084
607.30109
607.86127
608.42145
608.98163
609.54181
610.10199
610.66217
611.22229
611.78247
612.34259
612.90277
613.46289
614.02301
614.58313
615.14325
615.70337
616.26349
616.82361
617.38367
617.94379
618.50385
619.06396
619.62402
620.18408
620.74414
621.3042
621.86426
622.42432
622.98431
623.54437
624.10437
624.66443
625.22443
625.78442
626.34442
626.90442
627.46442
628.02441
628.58435
629.14435
629.70428
630.26428
630.82422
631.38416
631.94409
632.50403
633.06396
633.62384
634.18378
634.74365
635.30359
635.86346
636.42334
636.98322
637.54309
638.10297
638.66284
639.22272
639.78253
640.34241
640.90222
641.46204
642.02191
642.58173
643.14154
643.70129
644.26111
644.82092
645.38068
645.94049
646.50024
647.06
647.61975
648.1795
648.73926
649.29901
649.8587
650.41846
650.97815
651.53784
652.0976
652.65729
653.21698
653.77667
654.3363
654.896
655.45563
656.01532
656.57495
657.13458
657.69421
658.25385
658.81348
659.37311
659.93274
660.49231
661.05194
661.61151
662.17108
662.73065
663.29022
663.84979
664.4093
664.96887
665.52844
666.08795
666.64746
667.20697
667.76648
668.32599
668.8855
669.44501
670.00446
670.56396
671.12341
671.68286
672.24231
672.80176
673.36121
673.92065
674.48004
675.03949
675.59888
676.15826
676.71765
677.27704
677.83643
678.39581
678.9552
679.51453
680.07391
680.63324
681.19257
681.75189
682.31122
682.87054
683.42981
683.98914
684.5484
685.10773
685.66699
686.22626
686.78552
687.34479
687.90399
688.46326
689.02246
689.58173
690.14093
690.70013
691.25934
691.81854
692.37769
692.93689
693.49603
694.05518
694.61438
695.17352
695.73267
696.29175
696.85089
697.41003
697.96912
698.5282
699.08728
699.64636
700.20544
700.76453
701.32361
701.88263
702.44171
703.00073
703.55975
704.11877
704.6778
705.23676
705.79578
706.35474
706.91376
707.47272
708.03168
708.59064
709.1496
709.7085
710.26746
710.82635
711.38531
711.94421
712.50311
713.06201
713.62085
714.17975
714.73859
715.29749
715.85632
716.41516
716.974
717.53284
718.09161
718.65045
719.20923
719.76801
720.32678
720.88556
721.44434
722.00311
722.56183
723.12061
723.67932
724.23804
724.79675
725.35547
725.91418
726.47284
727.03156
727.59021
728.14886
728.70752
729.26617
729.82483
730.38348
730.94208
731.50067
732.05927
732.61792
733.17645
733.73505
734.29364
734.85217
735.41077
735.9693
736.52783
737.08636
737.64484
738.20337
738.76184
739.32037
739.87885
740.43732
740.99579
741.55426
742.11267
742.67114
743.22955
743.78796
744.34637
744.90479
745.4632
746.02155
746.57996
747.13831
747.69666
748.255
748.81335
749.3717
749.92999
750.48834
751.04663
751.60492
752.16321
752.7215
753.27972
753.83801
754.39624
754.95447
755.5127
756.07092
756.62915
757.18738
757.74554
758.30371
758.86188
759.42004
759.97821
760.53638
761.09448
761.65265
762.21075
762.76886
763.32697
763.88507
764.44312
765.00122
765.55927
766.11731
766.67535
767.2334
767.79144
768.34943
768.90747
769.46545
770.02344
770.58142
771.13934
771.69733
772.25525
772.81323
773.37115
773.92908
774.487
775.04486
775.60278
776.16064
776.71851
777.27637
777.83423
778.39209
778.94989
779.50775
780.06555
780.62335
781.18115
781.73895
782.29669
782.85443
783.41223
783.96997
784.52771
785.08539
785.64313
786.20081
786.75854
787.31622
787.8739
788.43158
788.9892
789.54688
790.10449
790.66211
791.21973
791.77734
792.3349
792.89252
793.45007
794.00763
794.56519
795.12274
795.6803
796.23779
796.79535
797.35284
797.91034
798.46777
799.02527
799.58276
800.1402
800.69763
801.25507
801.8125
802.36987
802.92731
803.48468
804.04205
804.59943
805.1568
805.71417
806.27148
806.8288
807.38611
807.94342
808.50073
809.05804
809.6153
810.17255
810.7298
811.28705
811.8443
812.40155
812.95874
813.51593
814.07312
814.63031
815.1875
815.74463
816.30182
816.85895
817.41608
817.97321
818.53027
819.0874
819.64447
820.20154
820.75861
821.31567
821.87268
822.42975
822.98676
823.54376
824.10077
824.65778
825.21472
825.77167
826.32867