240.82404
241.38522
241.9464
242.50758
243.06877
243.62996
244.19115
244.75235
245.31354
245.87474
246.43595
246.99715
247.55836
248.11957
248.68078
249.24199
249.80321
250.36443
250.92565
251.48688
252.0481
252.60933
253.17056
253.7318
254.29304
254.85427
255.41552
255.97676
256.538
257.09925
257.6605
258.22176
258.78301
259.34427
259.90553
260.46679
261.02805
261.58932
262.15059
262.71186
263.27313
263.8344
264.39568
264.95696
265.51824
266.07952
266.64081
267.2021
267.76339
268.32468
268.88597
269.44727
270.00856
270.56986
271.13116
271.69247
272.25377
272.81508
273.37639
273.9377
274.49901
275.06033
275.62164
276.18296
276.74428
277.3056
277.86693
278.42825
278.98958
279.55091
280.11224
280.67357
281.23491
281.79625
282.35758
282.91892
283.48026
284.04161
284.60295
285.1643
285.72565
286.287
286.84835
287.4097
287.97105
288.53241
289.09377
289.65513
290.21649
290.77785
291.33921
291.90058
292.46194
293.02331
293.58468
294.14605
294.70742
295.2688
295.83017
296.39155
296.95293
297.5143
298.07568
298.63707
299.19845
299.75983
300.32122
300.88261
301.44399
302.00538
302.56677
303.12817
303.68956
304.25095
304.81235
305.37374
305.93514
306.49654
307.05794
307.61934
308.18074
308.74215
309.30355
309.86496
310.42636
310.98777
311.54918
312.11059
312.672
313.23341
313.79482
314.35624
314.91765
315.47906
316.04048
316.6019
317.16332
317.72473
318.28615
318.84757
319.409
319.97042
320.53184
321.09326
321.65469
322.21611
322.77754
323.33897
323.90039
324.46182
325.02325
325.58468
326.14611
326.70754
327.26897
327.8304
328.39184
328.95327
329.5147
330.07614
330.63757
331.19901
331.76045
332.32188
332.88332
333.44476
334.0062
334.56763
335.12907
335.69051
336.25195
336.81339
337.37483
337.93628
338.49772
339.05916
339.6206
340.18204
340.74349
341.30493
341.86638
342.42782
342.98926
343.55071
344.11215
344.6736
345.23504
345.79649
346.35793
346.91938
347.48083
348.04227
348.60372
349.16516
349.72661
350.28806
350.8495
351.41095
351.9724
352.53384
353.09529
353.65674
354.21819
354.77963
355.34108
355.90253
356.46397
357.02542
357.58687
358.14831
358.70976
359.27121
359.83265
360.3941
360.95554
361.51699
362.07844
362.63988
363.20133
363.76277
364.32422
364.88566
365.44711
366.00855
366.56999
367.13144
367.69288
368.25432
368.81577
369.37721
369.93865
370.50009
371.06153
371.62297
372.18441
372.74585
373.30729
373.86873
374.43017
374.99161
375.55305
376.11448
376.67592
377.23736
377.79879
378.36023
378.92166
379.4831
380.04453
380.60596
381.16739
381.72882
382.29026
382.85169
383.41311
383.97454
384.53597
385.0974
385.65882
386.22025
386.78168
387.3431
387.90452
388.46595
389.02737
389.58879
390.15021
390.71163
391.27305
391.83446
392.39588
392.9573
393.51871
394.08013
394.64154
395.20295
395.76436
396.32577
396.88718
397.44859
398.01
398.5714
399.13281
399.69421
400.25561
400.81702
401.37842
401.93982
402.50121
403.06261
403.62401
404.1854
404.7468
405.30819
405.86958
406.43097
406.99236
407.55375
408.11513
408.67652
409.2379
409.79928
410.36067
410.92205
411.48342
412.0448
412.60618
413.16755
413.72892
414.2903
414.85167
415.41304
415.9744
416.53577
417.09713
417.6585
418.21986
418.78122
419.34258
419.90393
420.46529
421.02664
421.58799
422.14935
422.71069
423.27204
423.83339
424.39473
424.95607
425.51741
426.07875
426.64009
427.20143
427.76276
428.32409
428.88542
429.44675
430.00808
430.5694
431.13073
431.69205
432.25337
432.81469
433.376
433.93732
434.49863
435.05994
435.62125
436.18256
436.74386
437.30516
437.86646
438.42776
438.98906
439.55035
440.11165
440.67294
441.23423
441.79551
442.3568
442.91808
443.47936
444.04064
444.60191
445.16319
445.72446
446.28573
446.847
447.40826
447.96953
448.53079
449.09205
449.6533
450.21456
450.77581
451.33706
451.89831
452.45955
453.02079
453.58203
454.14327
454.70451
455.26574
455.82697
456.3882
456.94943
457.51065
458.07187
458.63309
459.19431
459.75552
460.31673
460.87794
461.43915
462.00035
462.56155
463.12275
463.68395
464.24514
464.80633
465.36752
465.92871
466.48989
467.05107
467.61225
468.17342
468.7346
469.29577
469.85693
470.4181
470.97926
471.54042
472.10157
472.66273
473.22388
473.78502
474.34617
474.90731
475.46845
476.02959
476.59072
477.15185
477.71298
478.2741
478.83522
479.39634
479.95746
480.51857
481.07968
481.64079
482.20189
482.76299
483.32409
483.88519
484.44628
485.00737
485.56845
486.12954
486.69062
487.25169
487.81276
488.37383
488.9349
489.49597
490.05703
490.61808
491.17914
491.74019
492.30124
492.86228
493.42332
493.98436
494.54539
495.10642
495.66745
496.22848
496.7895
497.35052
497.91153
498.47254
499.03355
499.59455
500.15555
500.71655
501.27754
501.83854
502.39952
502.96051
503.52149
504.08246
504.64343
505.2044
505.76537
506.32633
506.88729
507.44825
508.0092
508.57014
509.13109
509.69203
510.25297
510.8139
511.37483
511.93575
512.49668
513.05759
513.61851
514.17942
514.74033
515.30123
515.86213
516.42302
516.98392
517.5448
518.10569
518.66657
519.22744
519.78832
520.34918
520.91005
521.47091
522.03177
522.59262
523.15347
523.71431
524.27515
524.83599
525.39682
525.95765
526.51848
527.0793
527.64011
528.20093
528.76173
529.32254
529.88334
530.44413
531.00493
531.56571
532.1265
532.68728
533.24805
533.80882
534.36959
534.93035
535.49111
536.05186
536.61261
537.17336
537.7341
538.29483
538.85556
539.41629
539.97702
540.53773
541.09845
541.65916
542.21987
542.78057
543.34126
543.90196
544.46264
545.02333
545.58401
546.14468
546.70535
547.26602
547.82668
548.38733
548.94798
549.50863
550.06927
550.62991
551.19055
551.75117
552.3118
552.87242
553.43303
553.99364
554.55425
555.11485
555.67544
556.23603
556.79662
557.3572
557.91778
558.47835
559.03892
559.59948
560.16003
560.72059
561.28113
561.84168
562.40222
562.96275
563.52328
564.0838
564.64432
565.20483
565.76534
566.32584
566.88634
567.44683
568.00732
568.5678
569.12828
569.68875
570.24922
570.80968
571.37014
571.93059
572.49104
573.05148
573.61192
574.17235
574.73278
575.2932
575.85362
576.41403
576.97443
577.53483
578.09523
578.65562
579.216
579.77638
580.33676
580.89712
581.45749
582.01785
582.5782
583.13854
583.69889
584.25922
584.81955
585.37988
585.9402
586.50051
587.06082
587.62113
588.18142
588.74172
589.302
589.86228
590.42256
590.98283
591.5431
592.10335
592.66361
593.22386
593.7841
594.34433
594.90457
595.46479
596.02501
596.58522
597.14543
597.70563
598.26583
598.82602
599.38621
599.94639
600.50656
601.06673
601.62689
602.18705
602.7472
603.30734
603.86748
604.42761
604.98774
605.54786
606.10797
606.66808
607.22818
607.78828
608.34837
608.90846
609.46854
610.02861
610.58868
611.14874
611.70879
612.26884
612.82888
613.38892
613.94895
614.50897
615.06899
615.629
616.18901
616.74901
617.309
617.86899
618.42897
618.98894
619.54891
620.10887
620.66883
621.22878
621.78872
622.34866
622.90859
623.46852
624.02843
624.58835
625.14825
625.70815
626.26804
626.82793
627.38781
627.94768
628.50755
629.06741
629.62726
630.18711
630.74695
631.30678
631.86661
632.42643
632.98625
633.54605
634.10585
634.66565
635.22544
635.78522
636.34499
636.90476
637.46452
638.02428
638.58403
639.14377
639.7035
640.26323
640.82295
641.38266
641.94237
642.50207
643.06177
643.62145
644.18113
644.74081
645.30047
645.86013
646.41979
646.97943
647.53907
648.0987
648.65833
649.21795
649.77756
650.33716
650.89676
651.45635
652.01593
652.57551
653.13508
653.69464
654.2542
654.81374
655.37329
655.93282
656.49235
657.05187
657.61138
658.17088
658.73038
659.28987
659.84936
660.40883
660.9683
661.52776
662.08722
662.64667
663.20611
663.76554
664.32496
664.88438
665.44379
666.0032
666.56259
667.12198
667.68136
668.24074
668.8001
669.35946
669.91881
670.47816
671.0375
671.59682
672.15615
672.71546
673.27477
673.83407
674.39336
674.95264
675.51192
676.07119
676.63045
677.1897
677.74895
678.30819
678.86742
679.42664
679.98586
680.54507
681.10427
681.66346
682.22264
682.78182
683.34099
683.90015
684.4593
685.01845
685.57759
686.13672
686.69584
687.25495
687.81406
688.37316
688.93225
689.49133
690.05041
690.60948
691.16853
691.72759
692.28663
692.84566
693.40469
693.96371
694.52272
695.08173
695.64072
696.19971
696.75869
697.31766
697.87662
698.43557
698.99452
699.55346
700.11239
700.67131
701.23023
701.78913
702.34803
702.90692
703.4658
704.02467
704.58354
705.14239
705.70124
706.26008
706.81891
707.37773
707.93655
708.49536
709.05415
709.61294
710.17172
710.7305
711.28926
711.84802
712.40677
712.9655
713.52423
714.08296
714.64167
715.20038
715.75907
716.31776
716.87644
717.43511
717.99377
718.55243
719.11107
719.66971
720.22834
720.78695
721.34556
721.90417
722.46276
723.02134
723.57992
724.13849
724.69705
725.25559
725.81414
726.37267
726.93119
727.48971
728.04821
728.60671
729.1652
729.72367
730.28214
730.84061
731.39906
731.9575
732.51594
733.07436
733.63278
734.19119
734.74959
735.30797
735.86636
736.42473
736.98309
737.54144
738.09979
738.65812
739.21645
739.77477
740.33308
740.89137
741.44966
742.00795
742.56622
743.12448
743.68273
744.24098
744.79921
745.35744
745.91565
746.47386
747.03206
747.59025
748.14843
748.7066
749.26476
749.82291
750.38105
750.93918
751.49731
752.05542
752.61353
753.17162
753.72971
754.28778
754.84585
755.40391
755.96195
756.51999
757.07802
757.63604
758.19405
758.75205
759.31004
759.86802
760.42599
760.98396
761.54191
762.09985
762.65778
763.21571
763.77362
764.33152
764.88942
765.4473
766.00518
766.56304
767.1209
767.67874
768.23658
768.79441
769.35222
769.91003
770.46783
771.02561
771.58339
772.14116
772.69891
773.25666
773.8144
774.37213
774.92984
775.48755
776.04525
776.60294
777.16062
777.71828
778.27594
778.83359
779.39123
779.94885
780.50647
781.06408
781.62168
782.17926
782.73684
783.29441
783.85197
784.40951
784.96705
785.52457
786.08209
786.6396
787.19709
787.75458
788.31205
788.86952
789.42697
789.98442
790.54185
791.09928
791.65669
792.21409
792.77149
793.32887
793.88624
794.4436
795.00095
795.55829
796.11563
796.67295
797.23025
797.78755
798.34484
798.90212
799.45939
800.01665
800.57389
801.13113
801.68835
802.24557
802.80277
803.35997
803.91715
804.47432
805.03148
805.58863
806.14577
806.7029
807.26002
807.81713
808.37423
808.93132
809.48839
810.04546
810.60251
811.15956
811.71659
812.27361
812.83062
813.38762
813.94461